# factor, temperature
 0.6000  ,  838.6950  not this one.
 0.6500  ,  774.1800
 0.7000  ,  718.8814
 0.7500  ,  670.9560
 0.8000  ,  629.0212
 0.8500  ,  592.0200
 0.9000  ,  559.1300
 0.9500  ,  529.7021
 1.0000  ,  503.2170
 1.0500  ,  479.2543
 1.1000  ,  457.4700
 1.1500  ,  437.5800
 1.2000  ,  419.3475
 1.2500  ,  402.5736
 1.3000  ,  387.0900
 1.3500  ,  372.7533
 1.4000  ,  359.4407
 1.4500  ,  347.0462
 1.5000  ,  335.4780
 1.5500  ,  324.6561
 1.6000  ,  314.5106
 1.6500  ,  304.9800
 1.7000  ,  296.0100
 1.7500  ,  287.5526
 1.8000  ,  279.5650
 1.8500  ,  272.0092
 1.9000  ,  264.8511
 1.9500  ,  258.0600
 2.0000  ,  251.6085
 2.0500  ,  245.4717
 2.1000  ,  239.6271
 2.1500  ,  234.0544
 2.2000  ,  228.7350
 2.2500  ,  223.6520
 2.3000  ,  218.7900
 2.3500  ,  214.1349
 2.4000  ,  209.6738
 2.4500  ,  205.3947
 2.5000  ,  201.2868
 2.5500  ,  197.3400
 2.6000  ,  193.5450
 2.6500  ,  189.8932
 2.7000  ,  186.3767
 2.7500  ,  182.9880
 2.8000  ,  179.7204
 2.8500  ,  176.5674
 2.9000  ,  173.5231
 2.9500  ,  170.5820
 3.0000  ,  167.7390
 3.0500  ,  164.9892
 3.1000  ,  162.3281
 3.1500  ,  159.7514
 3.2000  ,  157.2553
 3.2500  ,  154.8360
 3.3000  ,  152.4900
 3.3500  ,  150.2140
 3.4000  ,  148.0050
 3.4500  ,  145.8600
 3.5000  ,  143.7763
 3.5500  ,  141.7513
 3.6000  ,  139.7825
 3.6500  ,  137.8677
 3.7000  ,  136.0046
 3.7500  ,  134.1912
 3.8000  ,  132.4255
 3.8500  ,  130.7057
 3.9000  ,  129.0300
 3.9500  ,  127.3967
 4.0000  ,  125.8042
 4.0500  ,  124.2511
 4.1000  ,  122.7359
 4.1500  ,  121.2571
 4.2000  ,  119.8136
 4.2500  ,  118.4040
 4.3000  ,  117.0272
 4.3500  ,  115.6821
 4.4000  ,  114.3675
 4.4500  ,  113.0825
 4.5000  ,  111.8260
 4.5500  ,  110.5971
 4.6000  ,  109.3950
 4.6500  ,  108.2187
 4.7000  ,  107.0674
 4.7500  ,  105.9404
 4.8000  ,  104.8369
 4.8500  ,  103.7561
 4.9000  ,  102.6973
 4.9500  ,  101.6600
 5.0000  ,  100.6434
 5.0500  ,   99.6469
 5.1000  ,   98.6700
 5.1500  ,   97.7120
 5.2000  ,   96.7725
 5.2500  ,   95.8509
 5.3000  ,   94.9466
 5.3500  ,   94.0593
 5.4000  ,   93.1883
 5.4500  ,   92.3334
 5.5000  ,   91.4940
 5.5500  ,   90.6697
 5.6000  ,   89.8602
 5.6500  ,   89.0650
 5.7000  ,   88.2837
 5.7500  ,   87.5160
 5.8000  ,   86.7616
 5.8500  ,   86.0200
 5.9000  ,   85.2910
 5.9500  ,   84.5743
 6.0000  ,   83.8695
 6.0500  ,   83.1764
 6.1000  ,   82.4946
 6.1500  ,   81.8239
 6.2000  ,   81.1640
 6.2500  ,   80.5147
 6.3000  ,   79.8757
 6.3500  ,   79.2468
 6.4000  ,   78.6277
 6.4500  ,   78.0181
 6.5000  ,   77.4180
 6.5500  ,   76.8270
 6.6000  ,   76.2450
 6.6500  ,   75.6717
 6.7000  ,   75.1070
 6.7500  ,   74.5507
 6.8000  ,   74.0025
 6.8500  ,   73.4623
 6.9000  ,   72.9300
 6.9500  ,   72.4053
 7.0000  ,   71.8881
 7.0500  ,   71.3783
 7.1000  ,   70.8756
 7.1500  ,   70.3800
 7.2000  ,   69.8912
 7.2500  ,   69.4092
 7.3000  ,   68.9338
 7.3500  ,   68.4649
 7.4000  ,   68.0023
 7.4500  ,   67.5459
 7.5000  ,   67.0956
 7.5500  ,   66.6513
 7.6000  ,   66.2128
 7.6500  ,   65.7800
 7.7000  ,   65.3529
 7.7500  ,   64.9312
 7.8000  ,   64.5150
 7.8500  ,   64.1041
 7.9000  ,   63.6984
 7.9500  ,   63.2977
 8.0000  ,   62.9021
 8.0500  ,   62.5114
 8.1000  ,   62.1256
 8.1500  ,   61.7444
 8.2000  ,   61.3679
 8.2500  ,   60.9960
 8.3000  ,   60.6286
 8.3500  ,   60.2655
 8.4000  ,   59.9068
 8.4500  ,   59.5523
 8.5000  ,   59.2020
 8.5500  ,   58.8558
 8.6000  ,   58.5136
 8.6500  ,   58.1754
 8.7000  ,   57.8410
 8.7500  ,   57.5105
 8.8000  ,   57.1837
 8.8500  ,   56.8607
 8.9000  ,   56.5412
 8.9500  ,   56.2254
 9.0000  ,   55.9130
 9.0500  ,   55.6041
 9.1000  ,   55.2986
 9.1500  ,   54.9964
 9.2000  ,   54.6975
 9.2500  ,   54.4018
 9.3000  ,   54.1094
 9.3500  ,   53.8200
 9.4000  ,   53.5337
 9.4500  ,   53.2505
 9.5000  ,   52.9702
 9.5500  ,   52.6929
 9.6000  ,   52.4184
 9.6500  ,   52.1468
 9.7000  ,   51.8780
 9.7500  ,   51.6120
 9.8000  ,   51.3487
 9.8500  ,   51.0880
 9.9000  ,   50.8300
 9.9500  ,   50.5746
10.0000  ,   50.3217
10.0500  ,   50.0713
10.1000  ,   49.8235
10.1500  ,   49.5780
10.2000  ,   49.3350
10.2500  ,   49.0943
10.3000  ,   48.8560
10.3500  ,   48.6200
10.4000  ,   48.3862
10.4500  ,   48.1547
10.5000  ,   47.9254
10.5500  ,   47.6983
10.6000  ,   47.4733
10.6500  ,   47.2504
10.7000  ,   47.0296
10.7500  ,   46.8109
10.8000  ,   46.5942
10.8500  ,   46.3794
10.9000  ,   46.1667
10.9500  ,   45.9559
11.0000  ,   45.7470
11.0500  ,   45.5400
11.1000  ,   45.3349
11.1500  ,   45.1316
11.2000  ,   44.9301
11.2500  ,   44.7304
11.3000  ,   44.5325
11.3500  ,   44.3363
11.4000  ,   44.1418
11.4500  ,   43.9491
11.5000  ,   43.7580
11.5500  ,   43.5686
11.6000  ,   43.3808
11.6500  ,   43.1946
11.7000  ,   43.0100
11.7500  ,   42.8270
11.8000  ,   42.6455
11.8500  ,   42.4656
11.9000  ,   42.2871
11.9500  ,   42.1102
12.0000  ,   41.9348
12.0500  ,   41.7607
12.1000  ,   41.5882
12.1500  ,   41.4170
12.2000  ,   41.2473
12.2500  ,   41.0789
12.3000  ,   40.9120
12.3500  ,   40.7463
12.4000  ,   40.5820
12.4500  ,   40.4190
12.5000  ,   40.2574
12.5500  ,   40.0970
12.6000  ,   39.9379
12.6500  ,   39.7800
12.7000  ,   39.6234
12.7500  ,   39.4680
12.8000  ,   39.3138
12.8500  ,   39.1609
12.9000  ,   39.0091
12.9500  ,   38.8585
13.0000  ,   38.7090
13.0500  ,   38.5607
